Blank,,Scan1,,Scan2,,
Wavelength (nm),Abs,Wavelength (nm),Abs,Wavelength (nm),Abs,
1099.967041,0.01969109848,1099.967041,0.06152308732,1099.967041,0.06587237865,
1099.028564,0.03614891693,1099.028564,0.08169362694,1099.028564,0.06481970847,
1097.972046,0.02683197148,1097.972046,0.06210943311,1097.972046,0.08384160697,
1097.032227,-1.682555376E-5,1097.032227,0.06727648526,1097.032227,0.0681418851,
1095.973999,0.0209919326,1095.973999,0.09291183949,1095.973999,0.07153269649,
1095.032715,-0.02446250804,1095.032715,0.07805574685,1095.032715,0.07762446254,
1093.973022,0.04101096839,1093.973022,0.0735463053,1093.973022,0.05436059088,
1093.030273,0.001959997462,1093.030273,0.08668335527,1093.030273,0.08536057174,
1091.968872,0.003997167107,1091.968872,0.0412559025,1091.968872,0.09876845032,
1091.024658,0.01794368401,1091.024658,0.05803079158,1091.024658,0.09241238981,
1089.96167,0.008267427795,1089.96167,0.06443051994,1089.96167,0.07961262763,
1089.016113,0.02080315724,1089.016113,0.08934684098,1089.016113,0.07873799652,
1087.951538,0.05479747429,1087.951538,0.06997255981,1087.951538,0.07298842072,
1087.004517,0.0129524013,1087.004517,0.0711299777,1087.004517,0.09058698267,
1086.056763,0.03357030824,1086.056763,0.08872018754,1086.056763,0.09378503263,
1084.989868,0.003528000787,1084.989868,0.08411950618,1084.989868,0.05771932751,
1084.040771,0.02001937851,1084.040771,0.07417850941,1084.040771,0.05696535483,
1082.972168,0.01394668873,1082.972168,0.07079096884,1082.972168,0.08649685979,
1082.021729,-0.003815401578,1082.021729,0.08341652155,1082.021729,0.08862986416,
1080.951538,0.02397847734,1080.951538,0.08321230114,1080.951538,0.07553743571,
1079.999634,-4.063906817E-5,1079.999634,0.07519882172,1079.999634,0.05822057277,
1079.046997,0.02241588011,1079.046997,0.09038835764,1079.046997,0.08971949667,
1077.974487,0.004538899753,1077.974487,0.0928844586,1077.974487,0.05658782646,
1077.020386,0.01792191342,1077.020386,0.07355498523,1077.020386,0.08549273759,
1075.946411,-0.001266460516,1075.946411,0.08982160687,1075.946411,0.07413508743,
1074.990967,0.007011755835,1074.990967,0.08837812394,1074.990967,0.0811413452,
1074.03479,0.009502715431,1074.03479,0.07209669054,1074.03479,0.08676151931,
1072.958374,0.01865761913,1072.958374,0.09593859315,1072.958374,0.07399427146,
1072.000854,-0.002260423731,1072.000854,0.07607902586,1072.000854,0.0725838542,
1071.042725,0.0140246423,1071.042725,0.08366630971,1071.042725,0.05885002017,
1069.963989,0.0304354988,1069.963989,0.08210620284,1069.963989,0.06893288344,
1069.004395,0.01540810894,1069.004395,0.08274395764,1069.004395,0.07922574133,
1068.044189,0.01849000528,1068.044189,0.09041124582,1068.044189,0.07796608657,
1066.963135,0.004697707482,1066.963135,0.0933303684,1066.963135,0.07475465536,
1066.001587,0.01962057129,1066.001587,0.07963833958,1066.001587,0.08255041391,
1065.039307,0.003827698994,1065.039307,0.07634820789,1065.039307,0.06980210543,
1063.955933,0.008460544981,1063.955933,0.07918386906,1063.955933,0.07670857012,
1062.992188,0.01093325205,1062.992188,0.09691356868,1062.992188,0.06312710792,
1062.027832,0.007988063619,1062.027832,0.0808781907,1062.027832,0.09085982293,
1060.942261,0.009389672428,1060.942261,0.08353808522,1060.942261,0.08227204531,
1059.97644,0.02002203465,1059.97644,0.07629262656,1059.97644,0.08336441964,
1059.010132,0.02548838034,1059.010132,0.09121375531,1059.010132,0.09095345438,
1058.043091,0.01707368158,1058.043091,0.0826459676,1058.043091,0.07963125408,
1056.954346,0.01200586185,1056.954346,0.08512970805,1056.954346,0.08956554532,
1055.985962,0.01459038723,1055.985962,0.07816063613,1055.985962,0.08564420789,
1055.016846,0.01633111015,1055.016846,0.08586253971,1055.016846,0.07820275426,
1054.047119,0.01738543808,1054.047119,0.1129894927,1054.047119,0.0820768401,
1052.955444,0.0163676925,1052.955444,0.094899863,1052.955444,0.07461544871,
1051.984375,0.01870183088,1051.984375,0.07311751693,1051.984375,0.07859986275,
1051.012573,0.01731210388,1051.012573,0.08789859712,1051.012573,0.09463271499,
1050.040161,0.0256779138,1050.040161,0.0768167749,1050.040161,0.08993204683,
1048.945435,0.02268398181,1048.945435,0.08034495264,1048.945435,0.08493561298,
1047.97168,0.01357868221,1047.97168,0.08608520776,1047.97168,0.0781115815,
1046.997314,0.02130801044,1046.997314,0.09110224992,1046.997314,0.09003487974,
1046.022217,0.0143356882,1046.022217,0.07583793998,1046.022217,0.08704762161,
1045.046509,0.002081266604,1045.046509,0.08647945523,1045.046509,0.08658475429,
1043.94812,0.0140735982,1043.94812,0.08845598996,1043.94812,0.08072931319,
1042.970947,0.01278902777,1042.970947,0.09140854329,1042.970947,0.08423162252,
1041.993286,0.01388451736,1041.993286,0.0894748494,1041.993286,0.08441572636,
1041.014893,0.02418363653,1041.014893,0.08598457277,1041.014893,0.0797554329,
1040.035889,0.01524748188,1040.035889,0.09411565959,1040.035889,0.08582004905,
1039.056274,0.01867572404,1039.056274,0.08236819506,1039.056274,0.09443251789,
1037.953369,0.009888838977,1037.953369,0.08729226142,1037.953369,0.08969839662,
1036.972412,0.01102221664,1036.972412,0.0867030099,1036.972412,0.08123059571,
1035.990723,0.01391081791,1035.990723,0.09145256877,1035.990723,0.0856372416,
1035.008423,0.01934395917,1035.008423,0.08980810642,1035.008423,0.08775730431,
1034.025513,0.02150492184,1034.025513,0.08598782122,1034.025513,0.08918272704,
1033.041992,0.01193736959,1033.041992,0.08484701067,1033.041992,0.07853100449,
1032.057739,0.01111972332,1032.057739,0.09554263204,1032.057739,0.08345256746,
1030.949707,0.02084525116,1030.949707,0.08476600796,1030.949707,0.08696775883,
1029.964233,0.02045154572,1029.964233,0.09401192516,1029.964233,0.08370557427,
1028.978027,0.01171756815,1028.978027,0.08636019379,1028.978027,0.07881036401,
1027.991211,0.0174258817,1027.991211,0.08944877237,1027.991211,0.08456030488,
1027.003784,0.0169398915,1027.003784,0.08283482492,1027.003784,0.07961023599,
1026.015625,0.01463796105,1026.015625,0.09074056149,1026.015625,0.08759527653,
1025.026978,0.01578741334,1025.026978,0.09020163864,1025.026978,0.08322773129,
1024.037598,0.01661301591,1024.037598,0.09421093017,1024.037598,0.08146885782,
1023.047607,0.01534529962,1023.047607,0.08856976777,1023.047607,0.0863558352,
1022.057007,0.01924721338,1022.057007,0.08478643,1022.057007,0.08922488242,
1020.941772,0.01631936431,1020.941772,0.08876340836,1020.941772,0.08881527185,
1019.949829,0.01326820441,1019.949829,0.09194131941,1019.949829,0.08561214805,
1018.957275,0.01943406835,1018.957275,0.0875762701,1018.957275,0.08951098472,
1017.96405,0.02232850157,1017.96405,0.08912879229,1017.96405,0.08975078166,
1016.970215,0.01591040567,1016.970215,0.09192410856,1016.970215,0.08786839247,
1015.975769,0.01419399213,1015.975769,0.0894869715,1015.975769,0.08756379783,
1014.980652,0.01406429335,1014.980652,0.09039444476,1014.980652,0.08747231215,
1013.984924,0.01609000005,1013.984924,0.09118287265,1013.984924,0.08781531453,
1012.988586,0.01714441739,1012.988586,0.0908305943,1012.988586,0.08381821215,
1011.991638,0.0147411041,1011.991638,0.08820495754,1011.991638,0.09045714885,
1010.994019,0.015032297,1010.994019,0.09070901573,1010.994019,0.08710968494,
1009.995789,0.0171169769,1009.995789,0.09095457196,1009.995789,0.08906649798,
1008.997009,0.01705375873,1008.997009,0.09252545238,1008.997009,0.08778074384,
1007.997498,0.01356182992,1007.997498,0.09600319713,1007.997498,0.08580017835,
1006.997437,0.01955869235,1006.997437,0.09065711498,1006.997437,0.08812966943,
1005.996765,0.02189114317,1005.996765,0.08941744268,1005.996765,0.08997796476,
1004.995422,0.01750395074,1004.995422,0.08982064575,1004.995422,0.08757934719,
1003.993469,0.0173227191,1003.993469,0.09033637494,1003.993469,0.08912608773,
1002.990906,0.01811885834,1002.990906,0.08623991907,1002.990906,0.09028987586,
1001.987732,0.01661866345,1001.987732,0.09090347588,1001.987732,0.08723795414,
1000.983948,0.0186525397,1000.983948,0.08914966881,1000.983948,0.09146295488,
999.9795532,0.01834251918,999.9795532,0.08831717819,999.9795532,0.08961336315,
998.9744873,0.01795431226,998.9744873,0.09155652672,998.9744873,0.08630091697,
997.9688721,0.01617841609,997.9688721,0.09013412893,997.9688721,0.08905712515,
996.9625854,0.01754990406,996.9625854,0.08887923509,996.9625854,0.08911903203,
995.9556885,0.01632525027,995.9556885,0.09118989855,995.9556885,0.09085650742,
994.9482422,0.01625225693,994.9482422,0.09013397247,994.9482422,0.08894534409,
993.9401245,0.01526193321,993.9401245,0.08904568106,993.9401245,0.0897314623,
993.0574951,0.01749079861,993.0574951,0.08931631595,993.0574951,0.08900056034,
992.0482788,0.01475928817,992.0482788,0.09086920321,992.0482788,0.09051387012,
991.0383911,0.01627735794,991.0383911,0.0896390453,991.0383911,0.09129133075,
990.0279541,0.01512936875,990.0279541,0.08920558542,990.0279541,0.09086892009,
989.0168457,0.0177604612,989.0168457,0.08920380473,989.0168457,0.09036938846,
988.005127,0.01622973755,988.005127,0.08729352057,988.005127,0.08892694861,
986.9928589,0.0173247382,986.9928589,0.09104596078,986.9928589,0.08865821362,
985.9799194,0.01505110972,985.9799194,0.08755052835,985.9799194,0.09038921446,
984.9664307,0.01694422401,984.9664307,0.09317552298,984.9664307,0.0891123265,
983.9522705,0.01622154191,983.9522705,0.09210068733,983.9522705,0.08973279595,
982.937561,0.0165233016,982.937561,0.09036748111,982.937561,0.09025644511,
982.0491333,0.01782499626,982.0491333,0.0908735767,982.0491333,0.08800379932,
981.0332642,0.01659572311,981.0332642,0.08961553127,981.0332642,0.09009985626,
980.0167847,0.01613349468,980.0167847,0.08834620565,980.0167847,0.09067296982,
978.9996948,0.01631896012,978.9996948,0.08947898448,978.9996948,0.08977675438,
977.9820557,0.01798083261,977.9820557,0.09009800851,977.9820557,0.09141588956,
976.9637451,0.01738174632,976.9637451,0.09119935334,976.9637451,0.08904803544,
975.9448853,0.01693343185,975.9448853,0.0901760906,975.9448853,0.09180327505,
975.0528564,0.01828562841,975.0528564,0.08989129215,975.0528564,0.08969769627,
974.0328369,0.01813205704,974.0328369,0.08681038767,974.0328369,0.09199058264,
973.012207,0.01558967028,973.012207,0.09044637531,973.012207,0.0911392197,
971.9909668,0.01705890149,971.9909668,0.0898322016,971.9909668,0.09037828445,
970.9691772,0.01539692469,970.9691772,0.08708589524,970.9691772,0.09265129268,
969.9467773,0.01678507216,969.9467773,0.08776259422,969.9467773,0.09263636172,
969.0516357,0.01666492783,969.0516357,0.08803509176,969.0516357,0.09041456133,
968.0281372,0.01625279523,968.0281372,0.08830756694,968.0281372,0.08943378925,
967.0039673,0.01727907918,967.0039673,0.08878887445,967.0039673,0.09316381067,
965.979248,0.01744474471,965.979248,0.08896720409,965.979248,0.09206737578,
964.9539185,0.01723638736,964.9539185,0.08898115158,964.9539185,0.09159395844,
964.0562744,0.01867529191,964.0562744,0.09087925404,964.0562744,0.09054218233,
963.0298462,0.01734618284,963.0298462,0.0890590027,963.0298462,0.09440568835,
962.0028076,0.01548541337,962.0028076,0.08708582819,962.0028076,0.09087695926,
960.9751587,0.01708687469,960.9751587,0.08893003315,960.9751587,0.09090408683,
959.9469604,0.01617298834,959.9469604,0.08542574197,959.9469604,0.09056606889,
959.0467529,0.01736835577,959.0467529,0.08767797798,959.0467529,0.09208068252,
958.0174561,0.0147114601,958.0174561,0.08855757862,958.0174561,0.09085143358,
956.9875488,0.01733850501,956.9875488,0.08769562095,956.9875488,0.09179838002,
955.9570313,0.01841405407,955.9570313,0.08885458857,955.9570313,0.09078359604,
955.0548706,0.01778556779,955.0548706,0.08918184042,955.0548706,0.09288635105,
954.0232544,0.01518831402,954.0232544,0.08671239763,954.0232544,0.09211435169,
952.9910278,0.01726202853,952.9910278,0.08696908504,952.9910278,0.09374413639,
951.958252,0.01628332399,951.958252,0.08802345395,951.958252,0.09107287228,
951.0540771,0.01627082564,951.0540771,0.08612702787,951.0540771,0.09048504382,
950.0201416,0.01764762029,950.0201416,0.08713761717,950.0201416,0.09169433266,
948.9857178,0.01724309288,948.9857178,0.08608555794,948.9857178,0.09052228928,
947.9506226,0.01793467253,947.9506226,0.08481559902,947.9506226,0.09118293226,
947.0444946,0.01676591672,947.0444946,0.08594223112,947.0444946,0.09248845279,
946.0083008,0.01798442192,946.0083008,0.08552690595,946.0083008,0.08988689631,
944.9715576,0.01784201525,944.9715576,0.08661247045,944.9715576,0.09254576266,
944.0639648,0.01709675603,944.0639648,0.08562904596,944.0639648,0.09151478857,
943.026123,0.01734149642,943.026123,0.08640443534,943.026123,0.09071028978,
941.9877319,0.01603249088,941.9877319,0.08739769459,941.9877319,0.09031970054,
940.9487305,0.01712093502,940.9487305,0.08515755087,940.9487305,0.08907984942,
940.0391235,0.01739562303,940.0391235,0.08553910255,940.0391235,0.08951932192,
938.9990234,0.01692882925,938.9990234,0.0855319798,938.9990234,0.09036945552,
937.958374,0.01683455519,937.958374,0.0848678723,937.958374,0.09142205864,
937.0473022,0.01706471667,937.0473022,0.0875941962,937.0473022,0.09146806598,
936.0055542,0.01763193123,936.0055542,0.08749685436,936.0055542,0.09076946229,
934.9632568,0.01844684221,934.9632568,0.08553484827,934.9632568,0.09100353718,
934.0507813,0.01764285006,934.0507813,0.08650551736,934.0507813,0.09006112069,
933.0073853,0.01855519041,933.0073853,0.08693145216,933.0073853,0.09103820473,
931.9633789,0.01752960868,931.9633789,0.08446596563,931.9633789,0.08874911815,
931.0494385,0.01929608546,931.0494385,0.08515308052,931.0494385,0.08793476224,
930.0043945,0.01807484217,930.0043945,0.08528602868,930.0043945,0.08977942914,
928.9587402,0.01849548891,928.9587402,0.08386974037,928.9587402,0.08982048929,
928.043335,0.01783667505,928.043335,0.08444273472,928.043335,0.09015984088,
926.9966431,0.01883611083,926.9966431,0.08483536541,926.9966431,0.08917449415,
925.9494019,0.01821767725,925.9494019,0.08163195848,925.9494019,0.09067402035,
925.0325317,0.0190540012,925.0325317,0.08390983939,925.0325317,0.08808508515,
923.9841919,0.01616151631,923.9841919,0.08331926167,923.9841919,0.08897800744,
922.9353027,0.01882792078,922.9353027,0.08415994048,922.9353027,0.0869192481,
922.0170288,0.01722930372,922.0170288,0.08503329754,922.0170288,0.0895537436,
920.967041,0.01744679175,920.967041,0.08231969923,920.967041,0.086249955,
920.0478516,0.01783648692,920.0478516,0.08189647645,920.0478516,0.08764392138,
918.9968262,0.01758402772,918.9968262,0.08226019144,918.9968262,0.0884006843,
917.9451904,0.01875866763,917.9451904,0.08211389929,917.9451904,0.08749618381,
917.0245972,0.01892370917,917.0245972,0.08271830529,917.0245972,0.08903173357,
915.9719238,0.01652983576,915.9719238,0.08248633891,915.9719238,0.08815633506,
915.050354,0.0166517999,915.050354,0.08131378144,915.050354,0.08882320672,
913.9966431,0.01780428365,913.9966431,0.08056113124,913.9966431,0.08781541139,
912.9423218,0.01908099465,912.9423218,0.08351756632,912.9423218,0.0870238021,
912.0194092,0.01785601489,912.0194092,0.08055900782,912.0194092,0.08845566958,
910.9640503,0.01871296391,910.9640503,0.08181011677,910.9640503,0.08701162785,
910.0401611,0.01865859143,910.0401611,0.08186966181,910.0401611,0.08766128123,
908.9837646,0.01867894083,908.9837646,0.0805156678,908.9837646,0.08803457767,
908.05896,0.01929235086,908.05896,0.08157689124,908.05896,0.08793691546,
907.0014648,0.01755766571,907.0014648,0.08105251938,907.0014648,0.08554818481,
905.9434814,0.01772783324,905.9434814,0.07894859463,905.9434814,0.08745993674,
905.0172729,0.0184112452,905.0172729,0.0790701583,905.0172729,0.08781623095,
903.9581909,0.0181308426,903.9581909,0.079320319,903.9581909,0.08690717071,
903.0310669,0.01796631888,903.0310669,0.07974351943,903.0310669,0.08575968444,
901.9710083,0.01797298156,901.9710083,0.07916674763,901.9710083,0.08630180359,
901.0429688,0.01983400434,901.0429688,0.07775807381,901.0429688,0.08722152561,
899.9818115,0.0195505973,899.9818115,0.07663602382,899.9818115,0.08549970388,
899.0528564,0.01904331706,899.0528564,0.07842469215,899.0528564,0.08521398902,
897.9906616,0.01766277291,897.9906616,0.07855770737,897.9906616,0.08687390387,
897.060791,0.01949484646,897.060791,0.07647497207,897.060791,0.0847986117,
895.9975586,0.01917748712,895.9975586,0.07766674459,895.9975586,0.08553863317,
894.9338379,0.01837794855,894.9338379,0.0767454803,894.9338379,0.08602894098,
894.0025635,0.01985389367,894.0025635,0.07657108456,894.0025635,0.08506651223,
892.9377441,0.02088938467,892.9377441,0.07512135804,892.9377441,0.08281042427,
892.0056152,0.01825161092,892.0056152,0.07707284391,892.0056152,0.08333180845,
890.9397583,0.0190253593,890.9397583,0.07432602346,890.9397583,0.0846857205,
890.0067139,0.0198922921,890.0067139,0.07499221712,890.0067139,0.08338032663,
888.9398193,0.01947733015,888.9398193,0.07445447147,888.9398193,0.0835544318,
888.0058594,0.01911994629,888.0058594,0.07606866211,888.0058594,0.08551345021,
886.9379883,0.01963164844,886.9379883,0.07416410744,886.9379883,0.08484122157,
886.0031128,0.02093727328,886.0031128,0.07413168252,886.0031128,0.08257164061,
884.9342041,0.02090049535,884.9342041,0.07418925315,884.9342041,0.08333876729,
883.9984741,0.02023113705,883.9984741,0.07448098809,883.9984741,0.08362478763,
883.0622559,0.02071431093,883.0622559,0.07459193468,883.0622559,0.08311220258,
881.9918823,0.02137179673,881.9918823,0.0743952319,881.9918823,0.08407894522,
881.0548096,0.02082719095,881.0548096,0.07430700958,881.0548096,0.08201593161,
879.9833984,0.02072183229,879.9833984,0.07291156054,879.9833984,0.08213429153,
879.0454102,0.02181805111,879.0454102,0.07471910864,879.0454102,0.08145530522,
877.9729614,0.0215796195,877.9729614,0.07346778363,877.9729614,0.08274082839,
877.0341187,0.02113170736,877.0341187,0.07418139279,877.0341187,0.08192773908,
875.9606323,0.02217888832,875.9606323,0.07271971554,875.9606323,0.08111223578,
875.0209351,0.02296289429,875.0209351,0.07275711745,875.0209351,0.08164489269,
873.9464722,0.02157695219,873.9464722,0.07186818868,873.9464722,0.08218383044,
873.0058594,0.02267596312,873.0058594,0.072375983,873.0058594,0.08068722486,
872.0648193,0.0228025578,872.0648193,0.07200309634,872.0648193,0.0800973773,
870.9888306,0.02337120287,870.9888306,0.07099052519,870.9888306,0.08093944192,
870.046936,0.02058878541,870.046936,0.0709001869,870.046936,0.08201543242,
868.9699707,0.02092407271,868.9699707,0.07095309347,868.9699707,0.07970896363,
868.0272217,0.02198297903,868.0272217,0.07068501413,868.0272217,0.08046129346,
866.9492188,0.02195000462,866.9492188,0.07011025399,866.9492188,0.080358468,
866.0055542,0.02121596225,866.0055542,0.0703452602,866.0055542,0.07710011303,
865.0614624,0.02392959595,865.0614624,0.07037116587,865.0614624,0.07865927368,
863.9820557,0.02588673495,863.9820557,0.06930457056,863.9820557,0.07940304279,
863.0371094,0.02541621961,863.0371094,0.0696271956,863.0371094,0.08014092594,
861.956665,0.02498670854,861.956665,0.06906363368,861.956665,0.07546610385,
861.0108643,0.02377155609,861.0108643,0.06875558943,861.0108643,0.07839870453,
860.0646362,0.02318076231,860.0646362,0.06714325398,860.0646362,0.080114685,
858.9827271,0.024694575,858.9827271,0.06902263314,858.9827271,0.07834912837,
858.0356445,0.02304152772,858.0356445,0.06782372296,858.0356445,0.07927976549,
856.9527588,0.02436085604,856.9527588,0.06825528294,856.9527588,0.07818728685,
856.0047607,0.02537444793,856.0047607,0.06660118699,856.0047607,0.0795314759,
855.0563965,0.02279284596,855.0563965,0.06847237051,855.0563965,0.07469260693,
853.9721069,0.02523456328,853.9721069,0.06609835476,853.9721069,0.07716605812,
853.0228271,0.02456761897,853.0228271,0.06623976678,853.0228271,0.07765801251,
851.9375,0.02395990305,851.9375,0.06593604386,851.9375,0.07559534907,
850.9874268,0.02357131988,850.9874268,0.06370936334,850.9874268,0.0765472725,
850.0369263,0.02315659635,850.0369263,0.06630121917,850.0369263,0.0757111758,
848.9501343,0.02580744773,848.9501343,0.06507349014,848.9501343,0.07469473034,
847.9988403,0.0238462612,847.9988403,0.06533403695,847.9988403,0.07162573189,
847.0470581,0.02526372857,847.0470581,0.06438419223,847.0470581,0.07508058101,
845.9588623,0.02543702349,845.9588623,0.06740673631,845.9588623,0.07371713221,
845.0062256,0.02473362163,845.0062256,0.06484048069,845.0062256,0.07490836084,
844.0532227,0.02559163608,844.0532227,0.063960962,844.0532227,0.07248122245,
842.963562,0.02497535758,842.963562,0.06192532182,842.963562,0.07303781807,
842.0097046,0.02412961423,842.0097046,0.06255555898,842.0097046,0.07259147614,
841.055481,0.02585176006,841.055481,0.06212302297,841.055481,0.07050432265,
839.9644165,0.02589190193,839.9644165,0.06169873476,839.9644165,0.07421842963,
839.0092773,0.02543683164,839.0092773,0.06117516384,839.0092773,0.07088753581,
838.053772,0.02421872504,838.053772,0.06147146225,838.053772,0.07239234447,
836.9613037,0.02526611462,836.9613037,0.06077529117,836.9613037,0.06954327226,
836.0049438,0.02499693632,836.0049438,0.0589007996,836.0049438,0.07002909482,
835.0482178,0.02603545971,835.0482178,0.05895573646,835.0482178,0.07043673098,
833.9542847,0.02459898591,833.9542847,0.05893207714,833.9542847,0.06820821017,
832.9967041,0.02500869893,832.9967041,0.0579287298,832.9967041,0.069182612,
832.0386963,0.02374257334,832.0386963,0.05829783529,832.0386963,0.06896358728,
830.9434204,0.02549980022,830.9434204,0.05848396942,830.9434204,0.06811511517,
829.9845581,0.02567596361,829.9845581,0.05788205564,829.9845581,0.06846370548,
829.0253296,0.02559199184,829.0253296,0.05723962933,829.0253296,0.06733512133,
828.0657349,0.02541462705,828.0657349,0.05681300163,828.0657349,0.06636790186,
826.9685669,0.02598843537,826.9685669,0.05579619482,826.9685669,0.066438362,
826.0081177,0.02594614215,826.0081177,0.05427734181,826.0081177,0.06695176661,
825.0473022,0.02647104487,825.0473022,0.0548780635,825.0473022,0.06560431421,
823.9487305,0.02605863102,823.9487305,0.05539318174,823.9487305,0.06579035521,
822.9870605,0.02623397671,822.9870605,0.05555739626,822.9870605,0.06524525583,
822.0249634,0.0241625905,822.0249634,0.05414583534,822.0249634,0.06442415714,
821.062561,0.02546397783,821.062561,0.05465069041,821.062561,0.06374838948,
819.9620972,0.02585071698,819.9620972,0.053443674,819.9620972,0.06431271881,
818.9988403,0.02573951706,818.9988403,0.05372411013,818.9988403,0.06266266108,
818.0351563,0.02778627723,818.0351563,0.05214711651,818.0351563,0.06323503703,
816.9334106,0.02717217058,816.9334106,0.05328365415,816.9334106,0.06413216889,
815.9688721,0.02698958665,815.9688721,0.05361394584,815.9688721,0.06110847369,
815.0040283,0.02655191347,815.0040283,0.05071652308,815.0040283,0.06135964394,
814.0387573,0.02596389502,814.0387573,0.05156117305,814.0387573,0.06172454357,
812.9351196,0.02665591612,812.9351196,0.05213867873,812.9351196,0.06353190541,
811.9690552,0.0264140144,811.9690552,0.05269220099,811.9690552,0.06072169915,
811.0025635,0.02654962987,811.0025635,0.05175415426,811.0025635,0.05985618383,
810.0357666,0.02732265927,810.0357666,0.05023859441,810.0357666,0.05940299481,
809.0684814,0.02548302896,809.0684814,0.04983867332,809.0684814,0.05832157657,
807.9626465,0.02613557316,807.9626465,0.04986976832,807.9626465,0.05914129317,
806.9945679,0.02751544863,806.9945679,0.0502990745,806.9945679,0.05842020735,
806.0261841,0.0270796977,806.0261841,0.04851781949,806.0261841,0.05817149952,
805.057373,0.02647830918,805.057373,0.04817792773,805.057373,0.05848838389,
803.949646,0.02482872084,803.949646,0.04794885963,803.949646,0.05693478137,
802.9800415,0.02525969408,802.9800415,0.04658511654,802.9800415,0.05726325512,
802.0100708,0.02616400085,802.0100708,0.04759745672,802.0100708,0.05483720824,
801.0396729,0.02687652595,801.0396729,0.04599260911,801.0396729,0.0555646643,
800.0689087,0.0259139929,800.0689087,0.04792553186,800.0689087,0.05490925908,
798.9589844,0.0264601782,798.9589844,0.04604392499,798.9589844,0.0544286035,
797.9874268,0.02590682171,797.9874268,0.0443228595,797.9874268,0.0534697324,
797.0155029,0.02719677985,797.0155029,0.04626709223,797.0155029,0.0548642613,
796.0431519,0.02704308368,796.0431519,0.04619767144,796.0431519,0.05393350124,
794.9314575,0.02687066048,794.9314575,0.04605748132,794.9314575,0.05336680263,
793.958374,0.02636122704,793.958374,0.04320967197,793.958374,0.05338152871,
792.9848633,0.02629051544,792.9848633,0.04644618183,792.9848633,0.05232876539,
792.0109863,0.02667069621,792.0109863,0.04281316698,792.0109863,0.05188540369,
791.0367432,0.02622809261,791.0367432,0.04309236631,791.0367432,0.04950262234,
790.0621338,0.02686622739,790.0621338,0.04264982045,790.0621338,0.05017370731,
788.9478149,0.02653917298,788.9478149,0.04299587011,788.9478149,0.0491460152,
787.9724121,0.02531190962,787.9724121,0.04129299521,787.9724121,0.04958217591,
786.996582,0.02614747733,786.996582,0.04189058021,786.996582,0.04974278435,
786.0204468,0.02537085302,786.0204468,0.0434108749,786.0204468,0.04860689491,
785.0438843,0.02743702196,785.0438843,0.04153791815,785.0438843,0.0475380756,
784.0669556,0.02516831458,784.0669556,0.03923100606,784.0669556,0.04689783603,
782.9500732,0.02623293176,782.9500732,0.04124608263,782.9500732,0.04645084962,
781.9723511,0.02604268864,781.9723511,0.03997379914,781.9723511,0.04673810303,
780.9943237,0.02515934408,780.9943237,0.03943105415,780.9943237,0.04580105096,
780.0158691,0.02631499246,780.0158691,0.03988406435,780.0158691,0.04631020129,
779.0370483,0.02572070248,779.0370483,0.03931802511,779.0370483,0.0474445112,
778.0579224,0.02605849318,778.0579224,0.03870203346,778.0579224,0.04639683664,
776.9384155,0.02551926486,776.9384155,0.03803334013,776.9384155,0.04464987293,
775.9584351,0.02571002021,775.9584351,0.03835605085,775.9584351,0.04354546592,
774.9780884,0.02626183257,774.9780884,0.03680223227,774.9780884,0.04288205132,
773.9974365,0.02585060708,773.9974365,0.03792542219,773.9974365,0.04339562729,
773.0163574,0.02586140297,773.0163574,0.03869852424,773.0163574,0.041925475,
772.0349731,0.02455310151,772.0349731,0.03699121624,772.0349731,0.04200436547,
771.0531616,0.02613100968,771.0531616,0.03582177311,771.0531616,0.04228084907,
769.9306641,0.02541328222,769.9306641,0.03662281856,769.9306641,0.04242347926,
768.9481201,0.02552909218,768.9481201,0.03735659271,768.9481201,0.04146417603,
767.96521,0.02506134845,767.96521,0.03640494496,767.96521,0.04079224542,
766.9818726,0.02427193522,766.9818726,0.0360593237,766.9818726,0.04038524255,
765.99823,0.02532069013,765.99823,0.03525760025,765.99823,0.03984567523,
765.0142212,0.02441107295,765.0142212,0.03636781871,765.0142212,0.03960051388,
764.0298462,0.0257722307,764.0298462,0.03529401496,764.0298462,0.03929115832,
763.045105,0.02424204536,763.045105,0.0348995924,763.045105,0.03908751905,
762.0599976,0.0245523341,762.0599976,0.03540330753,762.0599976,0.03792138025,
760.9337769,0.02428173646,760.9337769,0.03488733619,760.9337769,0.03764890134,
759.947876,0.02538674325,759.947876,0.03423672542,759.947876,0.03848681971,
758.9616699,0.02492957003,758.9616699,0.03418460488,758.9616699,0.03613439947,
757.9750977,0.02573745698,757.9750977,0.03432571888,757.9750977,0.03729701415,
756.9881592,0.02458632924,756.9881592,0.03350965306,756.9881592,0.03634592146,
756.0008545,0.0250217244,756.0008545,0.03408401832,756.0008545,0.03563852236,
755.0131836,0.02493623272,755.0131836,0.03166551515,755.0131836,0.03512302786,
754.0252075,0.024269199,754.0252075,0.03350719437,754.0252075,0.03511418775,
753.0368042,0.02366028726,753.0368042,0.03400377929,753.0368042,0.03436866775,
752.0480957,0.02349586785,752.0480957,0.03372428939,752.0480957,0.03368425742,
751.059021,0.0250182692,751.059021,0.03187857196,751.059021,0.03347856179,
750.0695801,0.02394081093,750.0695801,0.03201501071,750.0695801,0.03274175897,
748.9383545,0.02265894599,748.9383545,0.03247552365,748.9383545,0.03341956809,
747.9481812,0.0235584192,747.9481812,0.03284203634,747.9481812,0.03271278739,
746.9576416,0.02302059159,746.9576416,0.03200408816,746.9576416,0.032264404,
745.9667358,0.02335350029,745.9667358,0.03189046681,745.9667358,0.03065137193,
744.9755249,0.02204558626,744.9755249,0.03214664385,744.9755249,0.03138137609,
743.9838867,0.02292869799,743.9838867,0.03089203127,743.9838867,0.03026530519,
742.9919434,0.02343283407,742.9919434,0.03082013316,742.9919434,0.0303583201,
741.9996338,0.02244850807,741.9996338,0.03061587177,741.9996338,0.02919879742,
741.007019,0.02159398235,741.007019,0.03115724213,741.007019,0.02924068831,
740.0140381,0.02148876525,740.0140381,0.03073693998,740.0140381,0.02884976007,
739.0206909,0.02130273543,739.0206909,0.03072293662,739.0206909,0.0284911897,
738.0269775,0.02067347802,738.0269775,0.03042392246,738.0269775,0.02856654674,
737.0328979,0.02020938694,737.0328979,0.02958757617,737.0328979,0.02850064263,
736.0385132,0.01938791573,736.0385132,0.02971816994,736.0385132,0.0278729666,
735.0437622,0.02054560184,735.0437622,0.02980111353,735.0437622,0.02814147621,
734.0487061,0.01969990321,734.0487061,0.02920073643,734.0487061,0.02701112814,
733.0532837,0.01988451369,733.0532837,0.02984536439,733.0532837,0.02660986967,
732.0574951,0.01939565688,732.0574951,0.02967681363,732.0574951,0.02593704686,
731.0613403,0.0192382019,731.0613403,0.02935821749,731.0613403,0.0264617186,
730.0648804,0.01885227673,730.0648804,0.02915674448,730.0648804,0.02546408772,
729.0680542,0.01855556853,729.0680542,0.02931512333,729.0680542,0.02477064542,
728.0709229,0.01826589182,728.0709229,0.02900088765,728.0709229,0.02466503903,
726.9308472,0.01711390726,726.9308472,0.02835460939,726.9308472,0.02442262694,
725.9329834,0.01726598851,725.9329834,0.02843444608,725.9329834,0.02429909073,
724.9347534,0.01688334532,724.9347534,0.02823671699,724.9347534,0.02372368239,
723.9361572,0.0166098699,723.9361572,0.02805981599,723.9361572,0.02316006459,
722.9371948,0.0165420454,722.9371948,0.02774896845,722.9371948,0.02262881026,
721.9379883,0.01528381184,721.9379883,0.02786269784,721.9379883,0.02221594006,
720.9383545,0.01563875005,720.9383545,0.0277277492,720.9383545,0.0228537675,
719.9384155,0.01468634326,719.9384155,0.02774322964,719.9384155,0.02253939956,
718.9381104,0.01520284358,718.9381104,0.02759805694,718.9381104,0.02221795544,
717.9375,0.01529802382,717.9375,0.02832871862,717.9375,0.02198760957,
716.9365234,0.01467782818,716.9365234,0.02786032483,716.9365234,0.02180196531,
715.9352417,0.01458862051,715.9352417,0.02831465378,715.9352417,0.02187077887,
714.9335938,0.01428729203,714.9335938,0.02827978693,714.9335938,0.02148990706,
713.9316406,0.0142260883,713.9316406,0.02938544378,713.9316406,0.02207053266,
712.9293213,0.01410047151,712.9293213,0.02936691418,712.9293213,0.02176111192,
712.0698853,0.01481807604,712.0698853,0.02960284427,712.0698853,0.02197031863,
711.0669556,0.01449418534,711.0669556,0.02997539751,711.0669556,0.02228708193,
710.0637207,0.0155144399,710.0637207,0.03060603887,710.0637207,0.02290926874,
709.0600586,0.01523378212,709.0600586,0.03173409775,709.0600586,0.02304600365,
708.0561523,0.01572460309,708.0561523,0.03166863322,708.0561523,0.02407360263,
707.0518799,0.01555293892,707.0518799,0.03216348216,707.0518799,0.02526990138,
706.0472412,0.0164782647,706.0472412,0.03349849954,706.0472412,0.02543115057,
705.0422974,0.0168797113,705.0422974,0.03514051437,705.0422974,0.02633809671,
704.0370483,0.01809772663,704.0370483,0.03591885045,704.0370483,0.02721033804,
703.0314331,0.01850794256,703.0314331,0.03714413196,703.0314331,0.0279969722,
702.0254517,0.01911753975,702.0254517,0.03828745708,702.0254517,0.02913958207,
701.0192261,0.01960456558,701.0192261,0.03945835307,701.0192261,0.02985038236,
700.0125732,0.02003529109,700.0125732,0.03990497813,700.0125732,0.0308863055,
699.0056763,0.02122058347,699.0056763,0.04158007354,699.0056763,0.03273810446,
697.9984131,0.02193707228,697.9984131,0.04298378155,697.9984131,0.03306840733,
696.9907837,0.02261143923,696.9907837,0.04420129582,696.9907837,0.03411344811,
695.9829102,0.02305951528,695.9829102,0.04593385011,695.9829102,0.03491036594,
694.9746094,0.02409048565,694.9746094,0.0472259894,694.9746094,0.03815756738,
693.9660645,0.02454450168,693.9660645,0.04858746752,693.9660645,0.03771832585,
692.9571533,0.02509741299,692.9571533,0.05092836916,692.9571533,0.0393050164,
691.947937,0.02721998468,691.947937,0.05169691145,691.947937,0.04003436863,
690.9383545,0.02651033551,690.9383545,0.05090616271,690.9383545,0.04030340537,
689.9284668,0.02762696519,689.9284668,0.05188852549,689.9284668,0.04157674313,
689.062561,0.02838705108,689.062561,0.05456491932,689.062561,0.04403287172,
688.052063,0.02977034077,688.052063,0.05702919886,688.052063,0.04418865964,
687.0412598,0.02993476577,687.0412598,0.05665910617,687.0412598,0.04474909231,
686.0301514,0.02979348972,686.0301514,0.05751895159,686.0301514,0.04624117911,
685.0186768,0.0306706503,685.0186768,0.05861163884,685.0186768,0.0466170758,
684.006897,0.03142723441,684.006897,0.06002286449,684.006897,0.04735639691,
682.994751,0.03109901026,682.994751,0.06054454297,682.994751,0.04872063175,
681.9823608,0.03116183169,681.9823608,0.06129518896,681.9823608,0.04936965555,
680.9696045,0.03192841262,680.9696045,0.06279315054,680.9696045,0.05101613328,
679.9564819,0.03270218149,679.9564819,0.06421294808,679.9564819,0.05082403496,
678.9431152,0.03309069946,678.9431152,0.06547171623,678.9431152,0.0526178889,
677.9293823,0.03323286027,677.9293823,0.06524784118,677.9293823,0.05342561379,
677.0602417,0.03404890746,677.0602417,0.06762772799,677.0602417,0.053783115,
676.0459595,0.0349277854,676.0459595,0.06810024381,676.0459595,0.05553665757,
675.031311,0.03325365111,675.031311,0.06790997088,675.031311,0.0558328405,
674.0163574,0.03449406475,674.0163574,0.06902144849,674.0163574,0.05597095564,
673.0010986,0.03382238746,673.0010986,0.07074508816,673.0010986,0.0573025085,
671.9854736,0.03516032919,671.9854736,0.07192115486,671.9854736,0.05907195061,
670.9696045,0.0353753902,670.9696045,0.07197312266,670.9696045,0.06043177098,
669.9533691,0.03627055138,669.9533691,0.07369547337,669.9533691,0.06080169976,
668.9368286,0.03555777296,668.9368286,0.0745728761,668.9368286,0.06084115431,
668.0653076,0.03568823263,668.0653076,0.07497578859,668.0653076,0.06185108051,
667.0481567,0.03576642275,667.0481567,0.07472169399,667.0481567,0.06243025139,
666.0307007,0.03557653725,666.0307007,0.07578233629,666.0307007,0.06260067225,
665.0130005,0.03539881483,665.0130005,0.07681890577,665.0130005,0.06319390237,
663.9949341,0.03546119109,663.9949341,0.07679159939,663.9949341,0.06377444416,
662.9765625,0.03501633182,662.9765625,0.07796447724,662.9765625,0.06367576122,
661.9578247,0.03495732695,661.9578247,0.07893697917,661.9578247,0.06501127779,
660.9388428,0.0346760489,660.9388428,0.07890097052,660.9388428,0.06581345946,
660.0651855,0.03472194821,660.0651855,0.08049722016,660.0651855,0.06552212685,
659.0455933,0.03531285748,659.0455933,0.08011265844,659.0455933,0.06669160724,
658.0256958,0.0348167643,658.0256958,0.08056960255,658.0256958,0.0678961426,
657.0054932,0.03412109241,657.0054932,0.08171053231,657.0054932,0.06856663525,
655.9849854,0.03499273583,655.9849854,0.08334434777,655.9849854,0.0692294836,
654.9641724,0.03478246555,654.9641724,0.08277471364,654.9641724,0.06977170706,
653.9429932,0.03512126207,653.9429932,0.08321800828,653.9429932,0.06978110224,
653.0675049,0.03510947153,653.0675049,0.0841807127,653.0675049,0.07116821408,
652.0458374,0.03515017033,652.0458374,0.08467715979,652.0458374,0.07181464881,
651.0238037,0.0355806984,651.0238037,0.0853774026,651.0238037,0.0733153522,
650.0014648,0.03483844548,650.0014648,0.0864450857,650.0014648,0.07347305864,
648.9788818,0.03520656377,648.9788818,0.08738154918,648.9788818,0.07362539321,
647.9559326,0.03478030488,647.9559326,0.08832339197,647.9559326,0.0748250708,
646.9326782,0.0352518186,646.9326782,0.08859551698,646.9326782,0.07548670471,
646.0553589,0.03510891274,646.0553589,0.0892174691,646.0553589,0.07637144625,
645.0315552,0.03516591713,645.0315552,0.08906185627,645.0315552,0.07653452456,
644.0074463,0.03510279208,644.0074463,0.09005956352,644.0074463,0.07772482187,
642.9830322,0.03477551043,642.9830322,0.09030953795,642.9830322,0.07887198031,
641.958313,0.03595169634,641.958313,0.09163503349,641.958313,0.07914603502,
640.9332886,0.03450485691,640.9332886,0.09140700847,640.9332886,0.07918849587,
640.0545044,0.03477576002,640.0545044,0.09326401353,640.0545044,0.08072809875,
639.0289307,0.03554355726,639.0289307,0.09329690039,639.0289307,0.08149524778,
638.0030518,0.03514315188,638.0030518,0.09376071393,638.0030518,0.08197328448,
636.9768677,0.03507846221,636.9768677,0.09474217147,636.9768677,0.08258385211,
635.9503784,0.03528469428,635.9503784,0.09540040791,635.9503784,0.08280086517,
635.0702515,0.03589093313,635.0702515,0.09537270665,635.0702515,0.08377664536,
634.0432129,0.03495126963,634.0432129,0.09699226916,634.0432129,0.08472494781,
633.0158691,0.03575577214,633.0158691,0.09649195522,633.0158691,0.08510552347,
631.9882202,0.03542751446,631.9882202,0.09711629897,631.9882202,0.08594390005,
630.9603271,0.03499240056,630.9603271,0.09780019522,630.9603271,0.08669555187,
629.9320679,0.03526939079,629.9320679,0.09864400327,629.9320679,0.08734305948,
629.0504761,0.03531209752,629.0504761,0.09911996871,629.0504761,0.08873419464,
628.0217285,0.03503625467,628.0217285,0.09928632528,628.0217285,0.08870510757,
626.9926147,0.03482304513,626.9926147,0.1007264927,626.9926147,0.08990606666,
625.9632568,0.03547203541,625.9632568,0.1004854962,625.9632568,0.08992918581,
624.9335938,0.03472183645,624.9335938,0.1010775194,624.9335938,0.09123770148,
624.0507813,0.03555678949,624.0507813,0.1015856266,624.0507813,0.09236029536,
623.0205078,0.03505413234,623.0205078,0.1022131518,623.0205078,0.09225300699,
621.9899902,0.03540493548,621.9899902,0.101601392,621.9899902,0.0931013301,
620.9592285,0.03521914035,620.9592285,0.1019094884,620.9592285,0.09399071336,
619.9281006,0.03535859659,619.9281006,0.1022233441,619.9281006,0.09462527931,
619.0440674,0.03477896005,619.0440674,0.1033060551,619.0440674,0.09539908171,
618.0124512,0.03504767641,618.0124512,0.1036709324,618.0124512,0.09590317309,
616.9804688,0.03531341627,616.9804688,0.1043984219,616.9804688,0.09642685205,
615.9482422,0.03548796102,615.9482422,0.1046122611,615.9482422,0.09696747363,
615.0632324,0.03508090228,615.0632324,0.1049242765,615.0632324,0.09766170382,
614.0305176,0.03492733836,614.0305176,0.1052735969,614.0305176,0.09826128185,
612.9974365,0.03476370126,612.9974365,0.1053827628,612.9974365,0.0988978371,
611.9641113,0.0350651592,611.9641113,0.1055548713,611.9641113,0.09905815125,
610.9304199,0.03490262479,610.9304199,0.1049053594,610.9304199,0.09978882223,
610.0442505,0.03487549722,610.0442505,0.1054517627,610.0442505,0.09993265569,
609.0100708,0.035051018,609.0100708,0.1064488217,609.0100708,0.1007835269,
607.9755859,0.0353805013,607.9755859,0.1064625457,607.9755859,0.1006630436,
606.9408569,0.03494891152,606.9408569,0.1063693464,606.9408569,0.1017725617,
606.0537109,0.03510509431,606.0537109,0.1064409465,606.0537109,0.1025557742,
605.0184326,0.03475845978,605.0184326,0.1062730253,605.0184326,0.1017794013,
603.9828491,0.03557333723,603.9828491,0.1060641482,603.9828491,0.1031696722,
602.9470215,0.03471468762,602.9470215,0.1066884249,602.9470215,0.103754878,
602.0588989,0.03531479463,602.0588989,0.106858857,602.0588989,0.1037564278,
601.022583,0.03553085774,601.022583,0.1067770272,601.022583,0.1039820164,
599.9859009,0.03481194004,599.9859009,0.1069122925,599.9859009,0.1042121351,
598.9489746,0.0347924754,598.9489746,0.1070527434,598.9489746,0.1049962044,
598.0599365,0.03451887146,598.0599365,0.1072878763,598.0599365,0.1049556285,
597.0224609,0.03538227081,597.0224609,0.1068928242,597.0224609,0.1049935669,
595.9846802,0.03492601961,595.9846802,0.1064887121,595.9846802,0.1051356047,
594.9466553,0.03509092331,594.9466553,0.1065527871,594.9466553,0.1057240367,
594.0567017,0.03469194472,594.0567017,0.106756404,594.0567017,0.1057685167,
593.0181274,0.0345550254,593.0181274,0.10664583,593.0181274,0.1058906913,
591.9793091,0.03450511023,591.9793091,0.1060110778,591.9793091,0.1068250909,
590.9401855,0.03469326347,590.9401855,0.1056832224,590.9401855,0.106779702,
590.0493164,0.03473680839,590.0493164,0.1059958488,590.0493164,0.1066235304,
589.0097046,0.03450443596,589.0097046,0.1056671739,589.0097046,0.107573241,
587.9697876,0.03470689058,587.9697876,0.1048620567,587.9697876,0.1072233245,
586.9296265,0.03374278545,586.9296265,0.1044590324,586.9296265,0.106966272,
586.0377808,0.03387544304,586.0377808,0.1044969335,586.0377808,0.1072782651,
584.9971313,0.03388795629,584.9971313,0.104513526,584.9971313,0.1062871069,
583.9561157,0.03374093771,583.9561157,0.103796199,583.9561157,0.1065180227,
583.0636597,0.03410907835,583.0636597,0.1033186987,583.0636597,0.1068984568,
582.0221558,0.03358247504,582.0221558,0.1034288853,582.0221558,0.1066506654,
580.9804077,0.03414214775,580.9804077,0.102517426,580.9804077,0.1068089679,
579.9383545,0.03315621242,579.9383545,0.1014685184,579.9383545,0.1065048203,
579.0449829,0.03344439715,579.0449829,0.101144135,579.0449829,0.1064821929,
578.0024414,0.03357710689,578.0024414,0.1009958163,578.0024414,0.1065868363,
576.9595947,0.03330496326,576.9595947,0.1004557088,576.9595947,0.106099017,
576.0655518,0.03333707899,576.0655518,0.1001011431,576.0655518,0.1054755896,
575.0222168,0.03297556564,575.0222168,0.09856276214,575.0222168,0.1054275408,
573.9786377,0.03313324973,573.9786377,0.09788943827,573.9786377,0.1051232368,
572.9348145,0.03275147453,572.9348145,0.09781870991,572.9348145,0.1049045995,
572.039856,0.03293272853,572.039856,0.09697216749,572.039856,0.1043710634,
570.9954834,0.03264790028,570.9954834,0.09649405628,570.9954834,0.1038367078,
569.9508667,0.03223273158,569.9508667,0.09549222142,569.9508667,0.1035381779,
569.0552368,0.03192080557,569.0552368,0.09461868554,569.0552368,0.1024993658,
568.0100708,0.03151064739,568.0100708,0.09345535189,568.0100708,0.1020968556,
566.9647217,0.03168937564,566.9647217,0.09303240478,566.9647217,0.1020606756,
566.0684204,0.03191707283,566.0684204,0.09205604345,566.0684204,0.1014688462,
565.022522,0.03171830997,565.022522,0.09152654558,565.022522,0.1009597629,
563.9763794,0.03152180836,563.9763794,0.09056150913,563.9763794,0.1006388888,
562.9299316,0.0308161322,562.9299316,0.0895376429,562.9299316,0.09970203042,
562.0327759,0.03085812367,562.0327759,0.08786383271,562.0327759,0.09849137813,
560.9858398,0.03062117659,560.9858398,0.08744765073,560.9858398,0.09826209396,
559.9386597,0.03049269877,559.9386597,0.08623953909,559.9386597,0.09741336107,
559.0408936,0.03010394424,559.0408936,0.0857635662,559.0408936,0.09653330594,
557.9931641,0.03000868112,557.9931641,0.08417065442,557.9931641,0.09560801834,
556.9452515,0.02957305498,556.9452515,0.08362165093,556.9452515,0.09546487033,
556.046814,0.02929518372,556.046814,0.08228840679,556.046814,0.09381888807,
554.9983521,0.02890013903,554.9983521,0.08181468397,554.9983521,0.09324713051,
553.949707,0.02871605381,553.949707,0.07996151596,553.949707,0.09192465246,
553.0505981,0.02852576971,553.0505981,0.07901975513,553.0505981,0.09135080874,
552.0014038,0.02816763334,552.0014038,0.0778221637,552.0014038,0.09016471356,
550.9519653,0.02794429474,550.9519653,0.07649151981,550.9519653,0.08907292038,
550.0522461,0.02763987705,550.0522461,0.07528270781,550.0522461,0.08799599856,
549.0023193,0.02721080743,549.0023193,0.07386242598,549.0023193,0.08690524101,
547.9521484,0.0269744359,547.9521484,0.07296153158,547.9521484,0.08575104177,
547.0518188,0.02669123188,547.0518188,0.07149613649,547.0518188,0.08479014784,
546.0011597,0.02672357671,546.0011597,0.07071142644,546.0011597,0.08346439153,
544.9502563,0.02629290894,544.9502563,0.06940004975,544.9502563,0.08265849948,
544.0492554,0.02603985742,544.0492554,0.06805149466,544.0492554,0.08102531731,
542.9978638,0.02573127672,542.9978638,0.0668150112,542.9978638,0.07995326817,
541.946228,0.02543049119,541.946228,0.06567847729,541.946228,0.07858717442,
541.0446167,0.02535065636,541.0446167,0.06499513239,541.0446167,0.07808741182,
539.9924927,0.02491145022,539.9924927,0.06368849427,539.9924927,0.07679450512,
538.9400635,0.02499027178,538.9400635,0.06249837205,538.9400635,0.07558068633,
538.0378418,0.02466166764,538.0378418,0.06128001586,538.0378418,0.07415436953,
536.9849854,0.02463555895,536.9849854,0.06012080982,536.9849854,0.07298158854,
535.9318848,0.02443541586,535.9318848,0.05904576182,535.9318848,0.07159236819,
535.0290527,0.02422247455,535.0290527,0.05819553137,535.0290527,0.07081858069,
533.9754639,0.02391263843,533.9754639,0.05703344941,533.9754639,0.06938592345,
533.0722046,0.02408044226,533.0722046,0.05624766275,533.0722046,0.06847843528,
532.0181274,0.02414945513,532.0181274,0.0553566888,532.0181274,0.06768959016,
530.9638672,0.02402503788,530.9638672,0.0546476692,530.9638672,0.06633406132,
530.0599976,0.02424606867,530.0599976,0.05375059322,530.0599976,0.06550958008,
529.005249,0.02446994931,529.005249,0.05325717106,529.005249,0.06482920796,
527.9501953,0.0243040733,527.9501953,0.0523548983,527.9501953,0.0635850057,
527.0457153,0.02469178103,527.0457153,0.05173890293,527.0457153,0.06275492162,
525.9902344,0.02498451434,525.9902344,0.05121755227,525.9902344,0.06232123449,
524.9345703,0.02537699975,524.9345703,0.05110030621,524.9345703,0.06125307083,
524.0294189,0.0254997462,524.0294189,0.05057600141,524.0294189,0.06046283245,
522.9732666,0.02604345791,522.9732666,0.0501316078,522.9732666,0.05993043631,
522.0678101,0.02636628971,522.0678101,0.0499696061,522.0678101,0.05904890597,
521.0111694,0.02672542073,521.0111694,0.04943233356,521.0111694,0.05852973089,
519.9542847,0.02692934871,519.9542847,0.04914520308,519.9542847,0.05763968453,
519.0481567,0.02756992169,519.0481567,0.04911888391,519.0481567,0.05691521242,
517.9908447,0.02810201049,517.9908447,0.04868564755,517.9908447,0.05651638284,
516.9332886,0.02857019566,516.9332886,0.04873733968,516.9332886,0.05614560843,
516.0265503,0.02877156064,516.0265503,0.04857626557,516.0265503,0.05554742366,
514.9685669,0.02906404249,514.9685669,0.04839944839,514.9685669,0.05482413992,
514.0614624,0.02994927019,514.0614624,0.04872801527,514.0614624,0.05459165946,
513.0029907,0.03008424677,513.0029907,0.04862985387,513.0029907,0.05407722667,
511.9442444,0.03048886731,511.9442444,0.04859128967,511.9442444,0.05336630717,
511.0365906,0.03046504222,511.0365906,0.04865860566,511.0365906,0.05268445611,
509.977417,0.03107031435,509.977417,0.04870704934,509.977417,0.05251948535,
509.0693665,0.03173131496,509.0693665,0.04896279424,509.0693665,0.05201888084,
508.0097351,0.03225704283,508.0097351,0.04908682778,508.0097351,0.0515894182,
506.9498596,0.03239535913,506.9498596,0.0493337214,506.9498596,0.05110409111,
506.0412292,0.03291033208,506.0412292,0.04950810596,506.0412292,0.05067707598,
504.9809265,0.03304282203,504.9809265,0.04958191514,504.9809265,0.05049940199,
504.0718994,0.03373990208,504.0718994,0.04993231595,504.0718994,0.05016100779,
503.0111694,0.03377199173,503.0111694,0.05010005459,503.0111694,0.04992203787,
501.9501648,0.0339464806,501.9501648,0.05046477169,501.9501648,0.049481906,
501.0405884,0.03429585695,501.0405884,0.05090197176,501.0405884,0.04910949245,
499.9791565,0.03407536447,499.9791565,0.05066209659,499.9791565,0.04882451892,
499.0691833,0.03457714245,499.0691833,0.05118714646,499.0691833,0.04808015004,
498.0073242,0.03466575965,498.0073242,0.05175963789,498.0073242,0.04793131351,
496.9452209,0.03470445052,496.9452209,0.05210633948,496.9452209,0.04767874628,
496.034668,0.03527059779,496.034668,0.0525207147,496.034668,0.04769087955,
494.9721375,0.03500039503,494.9721375,0.0529329367,494.9721375,0.04745467752,
494.0612183,0.03493513539,494.0612183,0.0532213822,494.0612183,0.04716680199,
492.99823,0.03480464593,492.99823,0.05367603898,492.99823,0.04687009379,
491.9350586,0.0349448435,491.9350586,0.05450008437,491.9350586,0.0468653366,
491.0235596,0.0351202786,491.0235596,0.05479732528,491.0235596,0.04689183831,
489.9599304,0.03467425331,489.9599304,0.05502821505,489.9599304,0.04650218785,
489.0480652,0.03477110714,489.0480652,0.05526930839,489.0480652,0.04610868543,
487.9840088,0.03487552702,487.9840088,0.05614012852,487.9840088,0.04656575248,
487.0717773,0.0349852182,487.0717773,0.05657455698,487.0717773,0.04616620392,
486.0072937,0.03449835256,486.0072937,0.057089746,486.0072937,0.04616130888,
484.9425659,0.03461378068,484.9425659,0.05825280771,484.9425659,0.04653794691,
484.0297852,0.03461812809,484.0297852,0.05889175832,484.0297852,0.04693838581,
482.9646301,0.03427624702,482.9646301,0.05937551335,482.9646301,0.04673109949,
482.0514832,0.03417631239,482.0514832,0.06011153758,482.0514832,0.04709588364,
480.9859314,0.03373780474,480.9859314,0.06107113883,480.9859314,0.04718605056,
480.0724182,0.03388720006,480.0724182,0.06174432859,480.0724182,0.04757816344,
479.0064392,0.03362003714,479.0064392,0.06259795278,479.0064392,0.04796652496,
477.9402161,0.03366934881,477.9402161,0.06365651637,477.9402161,0.04826360568,
477.0261536,0.03375481442,477.0261536,0.06414783001,477.0261536,0.04880722612,
475.9595337,0.03323059529,475.9595337,0.06504492462,475.9595337,0.04938340187,
475.045105,0.03324864805,475.045105,0.06634775549,475.045105,0.0499044396,
473.9780579,0.03312724084,473.9780579,0.06678237766,473.9780579,0.05047820508,
473.0632629,0.03315157816,473.0632629,0.0682959035,473.0632629,0.05155569315,
471.9958191,0.03334090486,471.9958191,0.06960886717,471.9958191,0.05223617703,
470.9281311,0.03346217796,470.9281311,0.07102506608,470.9281311,0.05366608128,
470.0127869,0.03367648274,470.0127869,0.07261292636,470.0127869,0.05458038673,
468.9447021,0.03395445645,468.9447021,0.07454112917,468.9447021,0.05602428317,
468.0290222,0.03465182334,468.0290222,0.07595212758,468.0290222,0.0570696108,
466.9605103,0.03451351821,466.9605103,0.07745877653,466.9605103,0.05840202793,
466.0444946,0.03508564457,466.0444946,0.07917445153,466.0444946,0.05994113535,
464.9755859,0.03562972695,464.9755859,0.08063928783,464.9755859,0.06164589524,
464.0592041,0.03597222269,464.0592041,0.08207046241,464.0592041,0.06305559725,
462.9898682,0.03634572402,462.9898682,0.08371904492,462.9898682,0.06491267681,
462.0731506,0.03657626733,462.0731506,0.08514142781,462.0731506,0.06601712853,
461.003418,0.03689606488,461.003418,0.08744394779,461.003418,0.06812725961,
459.9334717,0.03753884882,459.9334717,0.08878697455,459.9334717,0.06963992119,
459.0162048,0.03843212128,459.0162048,0.09047414362,459.0162048,0.07216041535,
457.9458618,0.03892701119,457.9458618,0.09278630465,457.9458618,0.07367593795,
457.0282593,0.03925885633,457.0282593,0.09395124763,457.0282593,0.07538818568,
455.9575195,0.03948210925,455.9575195,0.09543962032,455.9575195,0.07699377835,
455.0395508,0.03992716968,455.0395508,0.09687256813,455.0395508,0.07872297615,
453.9684143,0.040332634,453.9684143,0.09838665277,453.9684143,0.0805535242,
453.0501099,0.0405857116,453.0501099,0.09983380884,453.0501099,0.08236084133,
451.9785767,0.04088049009,451.9785767,0.1017270833,451.9785767,0.08362206072,
451.0599365,0.04117961973,451.0599365,0.1026358306,451.0599365,0.08538077027,
449.9880066,0.04134817049,449.9880066,0.1038873419,449.9880066,0.0870231092,
449.0690308,0.04148434103,449.0690308,0.1046611369,449.0690308,0.08805075288,
447.9967041,0.04125442356,447.9967041,0.1063633263,447.9967041,0.0903057754,
446.9241638,0.04155250266,446.9241638,0.1070833504,446.9241638,0.09153549373,
446.0046692,0.04194317758,446.0046692,0.108802326,446.0046692,0.09371985495,
444.9317322,0.04217486084,444.9317322,0.1090585366,444.9317322,0.09488047659,
444.0119019,0.04212394357,444.0119019,0.1101385653,444.0119019,0.0960322246,
442.9385986,0.04240361229,442.9385986,0.1106303781,442.9385986,0.09811715782,
442.0184326,0.04242188111,442.0184326,0.1119207814,442.0184326,0.0990729779,
440.9447327,0.04273664206,440.9447327,0.1119028553,440.9447327,0.1011236161,
440.024231,0.04276343435,440.024231,0.1127284691,440.024231,0.1016152278,
438.9501343,0.04291922599,438.9501343,0.1141600832,438.9501343,0.1032124758,
438.0293274,0.04289262369,438.0293274,0.1141121089,438.0293274,0.1041816324,
436.954834,0.04299126938,436.954834,0.1145519614,436.954834,0.1056311876,
436.0336914,0.04273915663,436.0336914,0.1144830137,436.0336914,0.1066832915,
434.9588318,0.04278945923,434.9588318,0.1146214157,434.9588318,0.1074149162,
434.0373535,0.04276511818,434.0373535,0.1145257428,434.0373535,0.1082195416,
432.9620972,0.04263071716,432.9620972,0.11494679,432.9620972,0.1091599688,
432.0403137,0.0425128825,432.0403137,0.1147897691,432.0403137,0.1102268398,
430.9646912,0.04255367815,430.9646912,0.1147061288,430.9646912,0.111060366,
430.042572,0.04288219288,430.042572,0.1146388128,430.042572,0.1116492152,
428.9665527,0.04217588902,428.9665527,0.1143674999,428.9665527,0.1124947295,
428.0440979,0.04211039841,428.0440979,0.1141163483,428.0440979,0.1127237678,
426.9677429,0.04161936045,426.9677429,0.1132874638,426.9677429,0.1131404862,
426.0449829,0.04152179509,426.0449829,0.112651661,426.0449829,0.1126354858,
424.9682312,0.04201506078,424.9682312,0.1133176386,424.9682312,0.1142116338,
424.0451355,0.04224113002,424.0451355,0.1125240177,424.0451355,0.1143004,
422.9680176,0.04181392863,422.9680176,0.1118364111,422.9680176,0.1148556247,
422.0446167,0.04172606766,422.0446167,0.1113690585,422.0446167,0.1145300567,
420.9671021,0.04126501083,420.9671021,0.1091370434,420.9671021,0.1142199188,
420.043396,0.04127790779,420.043396,0.1090285257,420.043396,0.1145405322,
418.9655457,0.04137236997,418.9655457,0.1076341569,418.9655457,0.1132268831,
418.0415039,0.04133268073,418.0415039,0.1076297462,418.0415039,0.1139193177,
416.9632568,0.04124972597,416.9632568,0.1057546809,416.9632568,0.1134152338,
416.0389099,0.04067905992,416.0389099,0.1043850258,416.0389099,0.1128494963,
414.9603271,0.0409248583,414.9603271,0.1028936505,414.9603271,0.1125299186,
414.035675,0.04086390883,414.035675,0.1019306704,414.035675,0.112032868,
412.9566956,0.04066740349,412.9566956,0.1004792601,412.9566956,0.1109235957,
412.0317383,0.04029136524,412.0317383,0.09925746918,412.0317383,0.1097982451,
410.9524231,0.03994283453,410.9524231,0.0973976478,410.9524231,0.1090591699,
410.0271301,0.04012047127,410.0271301,0.09595599025,410.0271301,0.1079671159,
408.9474487,0.0396325849,408.9474487,0.09415813535,408.9474487,0.1071806103,
408.0218811,0.0395286046,408.0218811,0.09316705167,408.0218811,0.1057568938,
406.9418335,0.03921063244,406.9418335,0.09098425508,406.9418335,0.1044866219,
406.0159302,0.03906336054,406.0159302,0.08962205052,406.0159302,0.1029179916,
404.9355469,0.03850729764,404.9355469,0.0870783031,404.9355469,0.1006050184,
404.0093384,0.03850647807,404.0093384,0.08590588719,404.0093384,0.09947604686,
402.9286194,0.03797375411,402.9286194,0.08393028378,402.9286194,0.09782841057,
402.0021057,0.03830617294,402.0021057,0.0826369524,402.0021057,0.09638389945,
401.07547,0.03779128939,401.07547,0.08102690428,401.07547,0.09494195879,
399.9942017,0.03785288706,399.9942017,0.07904093713,399.9942017,0.0925135389,
399.0672607,0.03753136843,399.0672607,0.07747994363,399.0672607,0.0910083577,
397.9856567,0.03743736818,397.9856567,0.07568365335,397.9856567,0.08875416964,
397.0584106,0.03736118972,397.0584106,0.07460892946,397.0584106,0.08714381605,
395.9764404,0.03708940372,395.9764404,0.07309279591,395.9764404,0.08536649495,
395.0489197,0.03705918044,395.0489197,0.07124385238,395.0489197,0.08322776109,
393.9666138,0.03709052876,393.9666138,0.07021920383,393.9666138,0.08143379539,
393.0387573,0.03639255837,393.0387573,0.06870488822,393.0387573,0.07914829999,
391.9561157,0.03654208407,391.9561157,0.06735283881,391.9561157,0.07727409899,
391.0279846,0.03663771972,391.0279846,0.06701885164,391.0279846,0.07632102072,
389.9450073,0.036685545,389.9450073,0.06600194424,389.9450073,0.07380732149,
389.016571,0.03655070066,389.016571,0.06512488425,389.016571,0.07208994031,
387.9332275,0.03644497693,387.9332275,0.06436803937,387.9332275,0.07049528509,
387.0045166,0.03659806401,387.0045166,0.06379186362,387.0045166,0.06896644086,
386.0756531,0.03659803793,386.0756531,0.06339346617,386.0756531,0.06725995243,
384.9918518,0.03656644002,384.9918518,0.06264800578,384.9918518,0.06585963815,
384.0626831,0.03687278554,384.0626831,0.06267611682,384.0626831,0.06424785405,
382.9785461,0.03677788749,382.9785461,0.06271858513,382.9785461,0.06247454882,
382.0491028,0.03711035103,382.0491028,0.06284543872,382.0491028,0.06202124804,
380.9645996,0.0373593308,380.9645996,0.06323368847,380.9645996,0.06066963449,
380.0348816,0.03718769923,380.0348816,0.06291437894,380.0348816,0.05936913192,
378.9500427,0.03754672036,378.9500427,0.06421732903,378.9500427,0.05854255706,
378.02005,0.03779566661,378.02005,0.06447178125,378.02005,0.05770087987,
376.9348755,0.03830744699,376.9348755,0.065959692,376.9348755,0.05767400563,
376.0046082,0.03830888867,376.0046082,0.06648315489,376.0046082,0.05712354928,
375.0741882,0.03885444999,375.0741882,0.06736949086,375.0741882,0.05686616898,
373.9885559,0.03950515762,373.9885559,0.06941143423,373.9885559,0.05700103939,
373.0578613,0.03956458718,373.0578613,0.07078250498,373.0578613,0.057244353,
371.9718628,0.04066697881,371.9718628,0.07439725846,371.9718628,0.05781986192,
371.0408936,0.04193878919,371.0408936,0.07410021126,371.0408936,0.05859034136,
369.9545898,0.04231868312,369.9545898,0.07513003796,369.9545898,0.06100628152,
369.0233459,0.04240247235,369.0233459,0.07624282688,369.0233459,0.06000648811,
367.9367371,0.04257466272,367.9367371,0.07929707319,367.9367371,0.06069386378,
367.005188,0.04275577888,367.005188,0.08070188016,367.005188,0.06153990701,
366.0735474,0.04329832271,366.0735474,0.08227396011,366.0735474,0.06321778893,
364.9864502,0.04333987832,364.9864502,0.08405403048,364.9864502,0.06339568645,
364.0545044,0.04423611984,364.0545044,0.08638201654,364.0545044,0.06509805471,
362.9671021,0.04409200326,362.9671021,0.08868685365,362.9671021,0.06595218927,
362.0349121,0.0446600318,362.0349121,0.0904513821,362.0349121,0.06750624627,
360.9471741,0.04455724731,360.9471741,0.09235302359,360.9471741,0.06898318976,
360.0147095,0.04468734562,360.0147095,0.09482839704,360.0147095,0.07091094553,
358.9266357,0.04532427341,358.9266357,0.09654568136,358.9266357,0.07227028161,
357.9938965,0.04520182684,357.9938965,0.09852833301,357.9938965,0.07468031347,
357.0610352,0.04563962296,357.0610352,0.1010605916,357.0610352,0.07631397992,
355.9725342,0.04539099708,355.9725342,0.1030128151,355.9725342,0.07849121094,
355.0393982,0.04572270066,355.0393982,0.1047859639,355.0393982,0.08098307997,
353.9505615,0.04601062462,353.9505615,0.1063667983,353.9505615,0.08259020746,
353.0171814,0.04579506814,353.0171814,0.1084687337,353.0171814,0.08432660252,
351.9280396,0.04586951807,351.9280396,0.1098297089,351.9280396,0.08746525645,
350.9943848,0.04647089913,350.9943848,0.1120742485,350.9943848,0.08898356557,
350.0605774,0.04595261067,350.0605774,0.1135825813,350.0605774,0.09081725776,

Blank,
Blank
Collection Time: 7/18/2022 1:39:32 PM
Operator Name  :
Scan Software Version: 3.00(339)
Parameter List :
Instrument                        Cary 50
Instrument Version                3.00
Start (nm)                        1100.0
Stop (nm)                         350.0
X Mode                            Nanometers
Y Mode                            Abs
UV-Vis Scan Rate (nm/min)         4800.00
UV-Vis Data Interval (nm)         1.00
UV-Vis Ave. Time (sec)            0.0125
Beam Mode                         Dual Beam
Baseline Correction               Off
Cycle Mode                        Off
Comments
Method Log     :
Method Name    :
Date/Time stamp: 7/18/2022 1:36:51 PM
Method Modifications:
X Start nm Changed: 7/18/2022 1:39:08 PM, Old:  800.0, New: 1100.0
X Stop nm Changed: 7/18/2022 1:39:08 PM, Old:  200.0, New:  350.0
Common Interval nm Changed: 7/18/2022 1:39:08 PM, Old:     5.00, New:     1.00
End Method Modifications
<Current Wavelength> , 363.0

Scan1,
Scan1
Collection Time: 7/18/2022 1:40:27 PM
Operator Name  :
Scan Software Version: 3.00(339)
Parameter List :
Instrument                        Cary 50
Instrument Version                3.00
Start (nm)                        1100.0
Stop (nm)                         350.0
X Mode                            Nanometers
Y Mode                            Abs
UV-Vis Scan Rate (nm/min)         4800.00
UV-Vis Data Interval (nm)         1.00
UV-Vis Ave. Time (sec)            0.0125
Beam Mode                         Dual Beam
Baseline Correction               Off
Cycle Mode                        Off
Comments
Method Log     :
Method Name    :
Date/Time stamp: 7/18/2022 1:36:51 PM
Method Modifications:
X Start nm Changed: 7/18/2022 1:39:08 PM, Old:  800.0, New: 1100.0
X Stop nm Changed: 7/18/2022 1:39:08 PM, Old:  200.0, New:  350.0
Common Interval nm Changed: 7/18/2022 1:39:08 PM, Old:     5.00, New:     1.00
End Method Modifications
<Current Wavelength> , 363.0

Scan2,
Scan2
Collection Time: 7/18/2022 1:41:19 PM
Operator Name  :
Scan Software Version: 3.00(339)
Parameter List :
Instrument                        Cary 50
Instrument Version                3.00
Start (nm)                        1100.0
Stop (nm)                         350.0
X Mode                            Nanometers
Y Mode                            Abs
UV-Vis Scan Rate (nm/min)         4800.00
UV-Vis Data Interval (nm)         1.00
UV-Vis Ave. Time (sec)            0.0125
Beam Mode                         Dual Beam
Baseline Correction               Off
Cycle Mode                        Off
Comments
Method Log     :
Method Name    :
Date/Time stamp: 7/18/2022 1:36:51 PM
Method Modifications:
X Start nm Changed: 7/18/2022 1:39:08 PM, Old:  800.0, New: 1100.0
X Stop nm Changed: 7/18/2022 1:39:08 PM, Old:  200.0, New:  350.0
Common Interval nm Changed: 7/18/2022 1:39:08 PM, Old:     5.00, New:     1.00
End Method Modifications
<Current Wavelength> , 363.0

